# auto-correlation of: jx jy jz avg
            0   2.7123e+08   2.8466e+08   2.7035e+08   2.7541e+08
   5.0505e-03   2.5521e+08   2.6881e+08   2.5444e+08   2.5949e+08
   1.0101e-02   2.1690e+08   2.3087e+08   2.1632e+08   2.2136e+08
   1.5152e-02   1.7463e+08   1.8882e+08   1.7417e+08   1.7920e+08
   2.0202e-02   1.4001e+08   1.5384e+08   1.3957e+08   1.4447e+08
   2.5253e-02   1.1519e+08   1.2800e+08   1.1468e+08   1.1929e+08
   3.0303e-02   9.7977e+07   1.0931e+08   9.7175e+07   1.0149e+08
   3.5354e-02   8.5845e+07   9.5498e+07   8.4384e+07   8.8576e+07
   4.0404e-02   7.6899e+07   8.4964e+07   7.4656e+07   7.8839e+07
   4.5455e-02   6.9707e+07   7.6665e+07   6.7069e+07   7.1147e+07
   5.0505e-02   6.3324e+07   6.9941e+07   6.0903e+07   6.4723e+07
   5.5556e-02   5.7427e+07   6.4360e+07   5.5601e+07   5.9129e+07
   6.0606e-02   5.2120e+07   5.9537e+07   5.0948e+07   5.4202e+07
   6.5657e-02   4.7557e+07   5.5121e+07   4.6976e+07   4.9885e+07
   7.0707e-02   4.3725e+07   5.0968e+07   4.3655e+07   4.6116e+07
   7.5758e-02   4.0434e+07   4.7197e+07   4.0764e+07   4.2798e+07
   8.0808e-02   3.7413e+07   4.4046e+07   3.8096e+07   3.9851e+07
   8.5859e-02   3.4416e+07   4.1663e+07   3.5648e+07   3.7242e+07
   9.0909e-02   3.1374e+07   3.9964e+07   3.3500e+07   3.4946e+07
   9.5960e-02   2.8520e+07   3.8631e+07   3.1601e+07   3.2917e+07
   1.0101e-01   2.6255e+07   3.7269e+07   2.9786e+07   3.1103e+07
   1.0606e-01   2.4839e+07   3.5551e+07   2.7945e+07   2.9445e+07
   1.1111e-01   2.4214e+07   3.3329e+07   2.6081e+07   2.7874e+07
   1.1616e-01   2.4064e+07   3.0665e+07   2.4242e+07   2.6323e+07
   1.2121e-01   2.4016e+07   2.7826e+07   2.2462e+07   2.4768e+07
   1.2626e-01   2.3775e+07   2.5249e+07   2.0782e+07   2.3268e+07
   1.3131e-01   2.3192e+07   2.3328e+07   1.9301e+07   2.1940e+07
   1.3636e-01   2.2335e+07   2.2093e+07   1.8158e+07   2.0862e+07
   1.4141e-01   2.1386e+07   2.1180e+07   1.7425e+07   1.9997e+07
   1.4646e-01   2.0419e+07   2.0218e+07   1.6959e+07   1.9199e+07
   1.5152e-01   1.9331e+07   1.9151e+07   1.6439e+07   1.8307e+07
   1.5657e-01   1.8011e+07   1.8134e+07   1.5580e+07   1.7242e+07
   1.6162e-01   1.6451e+07   1.7302e+07   1.4342e+07   1.6032e+07
   1.6667e-01   1.4729e+07   1.6650e+07   1.2955e+07   1.4778e+07
   1.7172e-01   1.2985e+07   1.5998e+07   1.1764e+07   1.3583e+07
   1.7677e-01   1.1438e+07   1.5095e+07   1.0974e+07   1.2502e+07
   1.8182e-01   1.0292e+07   1.3844e+07   1.0487e+07   1.1541e+07
   1.8687e-01   9.5171e+06   1.2385e+07   1.0091e+07   1.0664e+07
   1.9192e-01   8.8049e+06   1.0923e+07   9.6733e+06   9.8004e+06
   1.9697e-01   7.8729e+06   9.5642e+06   9.2019e+06   8.8797e+06
   2.0202e-01   6.7654e+06   8.3242e+06   8.6338e+06   7.9078e+06
   2.0707e-01   5.7913e+06   7.2044e+06   7.9870e+06   6.9943e+06
   2.1212e-01   5.2069e+06   6.2342e+06   7.3868e+06   6.2760e+06
   2.1717e-01   4.9812e+06   5.4755e+06   6.8863e+06   5.7810e+06
   2.2222e-01   4.8312e+06   4.9979e+06   6.3742e+06   5.4011e+06
   2.2727e-01   4.5239e+06   4.8658e+06   5.7682e+06   5.0527e+06
   2.3232e-01   4.1171e+06   5.0701e+06   5.1731e+06   4.7868e+06
   2.3737e-01   3.8173e+06   5.4659e+06   4.7537e+06   4.6790e+06
   2.4242e-01   3.6907e+06   5.8588e+06   4.5630e+06   4.7042e+06
   2.4747e-01   3.5733e+06   6.1154e+06   4.5475e+06   4.7454e+06
   2.5253e-01   3.2522e+06   6.1706e+06   4.6320e+06   4.6850e+06
   2.5758e-01   2.7001e+06   6.0195e+06   4.7316e+06   4.4838e+06
   2.6263e-01   2.1041e+06   5.7063e+06   4.7123e+06   4.1742e+06
   2.6768e-01   1.6960e+06   5.3064e+06   4.4332e+06   3.8119e+06
   2.7273e-01   1.5245e+06   4.9209e+06   3.9527e+06   3.4660e+06
   2.7778e-01   1.4124e+06   4.6530e+06   3.5922e+06   3.2192e+06
   2.8283e-01   1.1472e+06   4.5345e+06   3.6496e+06   3.1104e+06
   2.8788e-01   6.1534e+05   4.4867e+06   4.0894e+06   3.0638e+06
   2.9293e-01  -2.5999e+05   4.4009e+06   4.6229e+06   2.9213e+06
   2.9798e-01  -1.5300e+06   4.2457e+06   5.0676e+06   2.5944e+06
   3.0303e-01  -3.0264e+06   4.0482e+06   5.5010e+06   2.1743e+06
   3.0808e-01  -4.3214e+06   3.8059e+06   6.0182e+06   1.8342e+06
   3.1313e-01  -5.0184e+06   3.4659e+06   6.5081e+06   1.6519e+06
   3.1818e-01  -5.0312e+06   3.0184e+06   6.7357e+06   1.5743e+06
   3.2323e-01  -4.5878e+06   2.5886e+06   6.5512e+06   1.5173e+06
   3.2828e-01  -4.0147e+06   2.3936e+06   6.0041e+06   1.4610e+06
   3.3333e-01  -3.5213e+06   2.6117e+06   5.3332e+06   1.4745e+06
   3.3838e-01  -3.1186e+06   3.2667e+06   4.8836e+06   1.6772e+06
   3.4343e-01  -2.6776e+06   4.1612e+06   4.9115e+06   2.1317e+06
   3.4848e-01  -2.0904e+06   4.9757e+06   5.3063e+06   2.7305e+06
   3.5354e-01  -1.3961e+06   5.4677e+06   5.6620e+06   3.2446e+06
   3.5859e-01  -7.4497e+05   5.5123e+06   5.6805e+06   3.4826e+06
   3.6364e-01  -2.7146e+05   5.0800e+06   5.3361e+06   3.3816e+06
   3.6869e-01   9.1515e+03   4.2849e+06   4.7521e+06   3.0154e+06
   3.7374e-01   1.9300e+05   3.3593e+06   4.0472e+06   2.5332e+06
   3.7879e-01   3.2764e+05   2.5220e+06   3.2605e+06   2.0367e+06
   3.8384e-01   2.4945e+05   1.8513e+06   2.3947e+06   1.4985e+06
   3.8889e-01  -2.5519e+05   1.2594e+06   1.5089e+06   8.3770e+05
   3.9394e-01  -1.0782e+06   6.4044e+05   7.3272e+05   9.8316e+04
   3.9899e-01  -1.7885e+06   4.6800e+04   1.5595e+05  -5.2859e+05
   4.0404e-01  -2.0576e+06  -3.8377e+05  -2.4128e+05  -8.9423e+05
   4.0909e-01  -2.0115e+06  -6.2892e+05  -5.7587e+05  -1.0721e+06
   4.1414e-01  -2.0962e+06  -7.8451e+05  -1.0146e+06  -1.2984e+06
   4.1919e-01  -2.6205e+06  -9.0816e+05  -1.6958e+06  -1.7415e+06
   4.2424e-01  -3.5118e+06  -9.6198e+05  -2.6096e+06  -2.3611e+06
   4.2929e-01  -4.4288e+06  -9.3592e+05  -3.5653e+06  -2.9767e+06
   4.3434e-01  -5.0291e+06  -9.5990e+05  -4.3258e+06  -3.4382e+06
   4.3939e-01  -5.2213e+06  -1.2035e+06  -4.7329e+06  -3.7192e+06
   4.4444e-01  -5.2294e+06  -1.6865e+06  -4.7256e+06  -3.8805e+06
   4.4949e-01  -5.3160e+06  -2.2435e+06  -4.3858e+06  -3.9817e+06
   4.5455e-01  -5.4645e+06  -2.6993e+06  -3.9575e+06  -4.0404e+06
   4.5960e-01  -5.3852e+06  -3.0481e+06  -3.6392e+06  -4.0242e+06
   4.6465e-01  -4.8368e+06  -3.4065e+06  -3.3633e+06  -3.8689e+06
   4.6970e-01  -3.9332e+06  -3.8309e+06  -2.8905e+06  -3.5515e+06
   4.7475e-01  -3.0910e+06  -4.2385e+06  -2.1328e+06  -3.1541e+06
   4.7980e-01  -2.6680e+06  -4.4797e+06  -1.2590e+06  -2.8022e+06
   4.8485e-01  -2.7296e+06  -4.4818e+06  -5.3132e+05  -2.5809e+06
   4.8990e-01  -3.0978e+06  -4.3306e+06  -1.3517e+05  -2.5212e+06
   4.9495e-01  -3.5165e+06  -4.1437e+06  -9.4147e+04  -2.5848e+06
   5.0000e-01  -3.8086e+06  -3.9695e+06  -2.5406e+05  -2.6774e+06
