# integrated auto-correlation of: jx jy jz avg
0 0 0 0 0
0.00504202 0.00140937 0.00134616 0.00138609 0.00138054
0.010084 0.00268418 0.00255806 0.00263788 0.0026267
0.0151261 0.00375412 0.00356594 0.00368531 0.00366845
0.0201681 0.00462025 0.00437151 0.00452978 0.00450718
0.0252101 0.00532049 0.00501303 0.00520939 0.00518097
0.0302521 0.00589708 0.00553299 0.00576646 0.00573218
0.0352941 0.00638279 0.00596468 0.00623383 0.00619376
0.0403361 0.00679983 0.0063312 0.00663414 0.00658839
0.0453782 0.00716297 0.00664832 0.0069831 0.00693146
0.0504202 0.00748232 0.00692667 0.00729176 0.00723358
0.0554622 0.00776483 0.00717297 0.00756733 0.00750171
0.0605042 0.00801555 0.00739103 0.00781425 0.00774028
0.0655462 0.00823897 0.00758308 0.00803577 0.00795261
0.0705882 0.00843992 0.00775077 0.00823514 0.00814194
0.0756303 0.00862354 0.00789608 0.00841587 0.00831183
0.0806723 0.0087944 0.00802214 0.00858152 0.00846602
0.0857143 0.0089555 0.00813321 0.00873559 0.0086081
0.0907563 0.00910801 0.00823381 0.00888141 0.00874108
0.0957983 0.00925202 0.0083276 0.00902165 0.00886709
0.10084 0.00938736 0.00841644 0.00915771 0.00898717
0.105882 0.00951406 0.00850022 0.00928924 0.00910118
0.110924 0.00963226 0.00857756 0.00941427 0.00920803
0.115966 0.00974202 0.00864701 0.00953011 0.00930638
0.121008 0.00984321 0.00870808 0.00963462 0.0093953
0.12605 0.00993596 0.00876127 0.00972708 0.00947477
0.131092 0.0100211 0.00880751 0.00980831 0.00954564
0.136134 0.0101001 0.0088475 0.00987996 0.00960917
0.141176 0.0101741 0.00888148 0.00994334 0.00966631
0.146218 0.0102441 0.00890921 0.00999914 0.00971747
0.151261 0.0103105 0.00893039 0.0100482 0.00976303
0.156303 0.0103743 0.00894488 0.0100919 0.0098037
0.161345 0.010436 0.00895291 0.0101319 0.00984027
0.166387 0.0104958 0.0089552 0.010169 0.00987332
0.171429 0.0105533 0.00895325 0.0102032 0.00990324
0.176471 0.0106081 0.00894918 0.0102345 0.0099306
0.181513 0.01066 0.00894527 0.0102639 0.00995637
0.186555 0.0107088 0.00894366 0.0102931 0.00998186
0.191597 0.0107543 0.00894598 0.0103242 0.0100082
0.196639 0.0107954 0.00895307 0.0103585 0.0100357
0.201681 0.0108308 0.00896483 0.0103953 0.0100636
0.206723 0.0108594 0.00898066 0.0104323 0.0100908
0.211765 0.0108812 0.00899992 0.010467 0.0101161
0.216807 0.0108969 0.00902243 0.0104988 0.0101394
0.221849 0.0109076 0.00904827 0.0105288 0.0101616
0.226891 0.0109146 0.00907705 0.0105583 0.0101833
0.231933 0.0109191 0.00910722 0.0105879 0.0102048
0.236975 0.0109231 0.00913629 0.0106173 0.0102256
0.242017 0.010928 0.00916181 0.0106462 0.0102453
0.247059 0.0109346 0.00918263 0.0106749 0.010264
0.252101 0.0109425 0.00919921 0.0107042 0.010282
0.257143 0.0109511 0.00921312 0.0107353 0.0102998
0.262185 0.0109599 0.00922628 0.0107689 0.0103184
0.267227 0.0109691 0.00924015 0.0108052 0.0103381
0.272269 0.0109788 0.00925507 0.0108432 0.010359
0.277311 0.0109898 0.00927019 0.0108811 0.0103804
0.282353 0.0110027 0.00928407 0.0109166 0.0104011
0.287395 0.0110187 0.0092954 0.0109477 0.0104206
0.292437 0.0110383 0.00930307 0.0109743 0.0104386
0.297479 0.0110616 0.00930626 0.0109975 0.0104551
0.302521 0.0110874 0.00930493 0.0110199 0.0104708
0.307563 0.0111145 0.00930019 0.0110444 0.0104864
0.312605 0.0111415 0.0092939 0.0110734 0.0105029
0.317647 0.0111672 0.00928811 0.0111077 0.010521
0.322689 0.011191 0.00928476 0.0111458 0.0105405
0.327731 0.0112128 0.00928541 0.0111858 0.0105613
0.332773 0.0112336 0.00929077 0.0112255 0.0105833
0.337815 0.0112546 0.00930057 0.0112635 0.0106062
0.342857 0.0112775 0.00931383 0.0112991 0.0106302
0.347899 0.0113035 0.00932927 0.0113324 0.0106551
0.352941 0.0113329 0.00934538 0.0113642 0.0106808
0.357983 0.0113645 0.00936035 0.0113957 0.0107069
0.363025 0.0113961 0.00937243 0.0114282 0.0107323
0.368067 0.0114254 0.0093805 0.0114617 0.0107559
0.373109 0.0114505 0.00938448 0.0114952 0.0107767
0.378151 0.0114707 0.00938518 0.0115273 0.0107944
0.383193 0.0114861 0.00938412 0.0115572 0.0108091
0.388235 0.0114971 0.00938333 0.0115849 0.0108218
0.393277 0.0115049 0.00938488 0.0116118 0.0108339
0.398319 0.0115109 0.00938984 0.0116389 0.0108466
0.403361 0.0115162 0.00939754 0.0116674 0.0108604
0.408403 0.0115218 0.00940619 0.0116974 0.0108751
0.413445 0.0115282 0.00941432 0.0117284 0.0108903
0.418487 0.0115351 0.00942151 0.0117594 0.0109053
0.423529 0.0115422 0.0094278 0.0117888 0.0109196
0.428571 0.0115486 0.00943272 0.0118155 0.0109323
0.433613 0.0115538 0.00943504 0.0118392 0.0109427
0.438655 0.0115579 0.00943383 0.0118591 0.0109503
0.443697 0.0115608 0.00942925 0.0118746 0.0109549
0.448739 0.0115621 0.0094222 0.0118854 0.0109566
0.453782 0.0115615 0.00941356 0.0118914 0.0109555
0.458824 0.0115592 0.0094037 0.0118921 0.0109517
0.463866 0.0115559 0.00939275 0.0118875 0.0109454
0.468908 0.0115527 0.00938079 0.0118776 0.010937
0.47395 0.0115496 0.00936788 0.0118639 0.0109271
0.478992 0.0115461 0.00935385 0.0118485 0.0109162
0.484034 0.0115416 0.00933823 0.0118338 0.0109045
0.489076 0.0115358 0.00932057 0.0118217 0.0108927
0.494118 0.0115294 0.00930084 0.0118122 0.0108808
0.49916 0.0115228 0.00927966 0.0118042 0.0108689
0.504202 0.0115162 0.00925835 0.0117956 0.0108567
0.509244 0.0115092 0.00923873 0.0117849 0.0108443
0.514286 0.0115012 0.00922267 0.0117713 0.0108317
0.519328 0.0114923 0.00921141 0.0117551 0.0108196
0.52437 0.0114835 0.00920516 0.0117377 0.0108088
0.529412 0.0114772 0.00920312 0.0117207 0.0108003
0.534454 0.0114759 0.00920395 0.0117049 0.0107949
0.539496 0.0114802 0.00920611 0.0116902 0.0107922
0.544538 0.0114886 0.00920819 0.0116756 0.0107908
0.54958 0.0114985 0.00920911 0.0116605 0.0107894
0.554622 0.011508 0.009208 0.0116448 0.0107869
0.559664 0.0115159 0.00920398 0.0116293 0.0107831
0.564706 0.0115216 0.00919631 0.0116147 0.0107775
0.569748 0.0115241 0.00918491 0.0116015 0.0107702
0.57479 0.0115225 0.00917091 0.01159 0.0107611
0.579832 0.0115166 0.0091563 0.0115804 0.0107511
0.584874 0.0115074 0.0091431 0.0115729 0.0107411
0.589916 0.0114964 0.00913262 0.0115674 0.0107321
0.594958 0.0114856 0.00912517 0.0115638 0.0107249
0.6 0.0114766 0.00912029 0.0115623 0.0107197
