# auto-correlation of: jx jy jz avg
            0   1.7166e+08   1.7172e+08   1.7406e+08   1.7248e+08
   5.0633e-03   1.6213e+08   1.6202e+08   1.6440e+08   1.6285e+08
   1.0127e-02   1.3863e+08   1.3820e+08   1.4061e+08   1.3915e+08
   1.5190e-02   1.1113e+08   1.1052e+08   1.1287e+08   1.1151e+08
   2.0253e-02   8.6794e+07   8.6320e+07   8.8401e+07   8.7172e+07
   2.5316e-02   6.7956e+07   6.7997e+07   6.9544e+07   6.8499e+07
   3.0380e-02   5.4169e+07   5.4976e+07   5.5831e+07   5.4992e+07
   3.5443e-02   4.4152e+07   4.5760e+07   4.5962e+07   4.5291e+07
   4.0506e-02   3.6779e+07   3.9015e+07   3.8779e+07   3.8191e+07
   4.5570e-02   3.1296e+07   3.3851e+07   3.3504e+07   3.2884e+07
   5.0633e-02   2.7179e+07   2.9693e+07   2.9588e+07   2.8820e+07
   5.5696e-02   2.4034e+07   2.6185e+07   2.6540e+07   2.5586e+07
   6.0759e-02   2.1581e+07   2.3146e+07   2.3969e+07   2.2899e+07
   6.5823e-02   1.9662e+07   2.0482e+07   2.1690e+07   2.0611e+07
   7.0886e-02   1.8200e+07   1.8094e+07   1.9677e+07   1.8657e+07
   7.5949e-02   1.7126e+07   1.5944e+07   1.7951e+07   1.7007e+07
   8.1013e-02   1.6299e+07   1.4089e+07   1.6516e+07   1.5635e+07
   8.6076e-02   1.5524e+07   1.2586e+07   1.5336e+07   1.4482e+07
   9.1139e-02   1.4672e+07   1.1401e+07   1.4341e+07   1.3471e+07
   9.6203e-02   1.3728e+07   1.0451e+07   1.3427e+07   1.2535e+07
   1.0127e-01   1.2735e+07   9.6774e+06   1.2521e+07   1.1644e+07
   1.0633e-01   1.1711e+07   9.0619e+06   1.1624e+07   1.0799e+07
   1.1139e-01   1.0631e+07   8.5575e+06   1.0769e+07   9.9861e+06
   1.1646e-01   9.4850e+06   8.0195e+06   9.9980e+06   9.1675e+06
   1.2152e-01   8.3236e+06   7.2728e+06   9.3275e+06   8.3080e+06
   1.2658e-01   7.1920e+06   6.2827e+06   8.7038e+06   7.3928e+06
   1.3165e-01   6.0833e+06   5.2075e+06   8.0038e+06   6.4315e+06
   1.3671e-01   5.0171e+06   4.2764e+06   7.1291e+06   5.4742e+06
   1.4177e-01   4.1114e+06   3.6444e+06   6.0864e+06   4.6141e+06
   1.4684e-01   3.5102e+06   3.3325e+06   4.9713e+06   3.9380e+06
   1.5190e-01   3.2365e+06   3.2659e+06   3.9044e+06   3.4689e+06
   1.5696e-01   3.1397e+06   3.3612e+06   2.9951e+06   3.1653e+06
   1.6203e-01   3.0238e+06   3.5989e+06   2.3110e+06   2.9779e+06
   1.6709e-01   2.8271e+06   3.9823e+06   1.8482e+06   2.8859e+06
   1.7215e-01   2.6428e+06   4.4067e+06   1.5468e+06   2.8654e+06
   1.7722e-01   2.5989e+06   4.6477e+06   1.3695e+06   2.8720e+06
   1.8228e-01   2.7250e+06   4.5255e+06   1.2984e+06   2.8496e+06
   1.8734e-01   2.9040e+06   4.0506e+06   1.2622e+06   2.7389e+06
   1.9241e-01   2.9827e+06   3.4252e+06   1.1594e+06   2.5224e+06
   1.9747e-01   2.8983e+06   2.9454e+06   9.6933e+05   2.2710e+06
   2.0253e-01   2.6653e+06   2.8308e+06   7.7430e+05   2.0901e+06
   2.0759e-01   2.3355e+06   3.0834e+06   6.6480e+05   2.0279e+06
   2.1266e-01   1.9651e+06   3.4860e+06   6.3838e+05   2.0299e+06
   2.1772e-01   1.5483e+06   3.7550e+06   6.1060e+05   1.9713e+06
   2.2278e-01   1.0507e+06   3.7190e+06   5.0579e+05   1.7585e+06
   2.2785e-01   5.4917e+05   3.3915e+06   3.2026e+05   1.4203e+06
   2.3291e-01   2.2627e+05   2.9308e+06   1.3515e+05   1.0974e+06
   2.3797e-01   1.9758e+05   2.5472e+06   6.4476e+04   9.3640e+05
   2.4304e-01   4.1412e+05   2.3701e+06   1.6074e+05   9.8167e+05
   2.4810e-01   7.3255e+05   2.3765e+06   3.7281e+05   1.1606e+06
   2.5316e-01   1.0169e+06   2.4569e+06   5.8164e+05   1.3518e+06
   2.5823e-01   1.2037e+06   2.5293e+06   6.8190e+05   1.4716e+06
   2.6329e-01   1.3453e+06   2.5778e+06   6.5919e+05   1.5274e+06
   2.6835e-01   1.5828e+06   2.6303e+06   5.8012e+05   1.5977e+06
   2.7342e-01   2.0148e+06   2.7257e+06   5.3690e+05   1.7591e+06
   2.7848e-01   2.5469e+06   2.8707e+06   5.9445e+05   2.0040e+06
   2.8354e-01   2.9200e+06   3.0108e+06   7.3393e+05   2.2216e+06
   2.8861e-01   2.9182e+06   3.0648e+06   8.4192e+05   2.2750e+06
   2.9367e-01   2.5360e+06   2.9656e+06   7.9354e+05   2.0984e+06
   2.9873e-01   1.9494e+06   2.6691e+06   5.6882e+05   1.7291e+06
   3.0380e-01   1.3724e+06   2.1892e+06   2.9334e+05   1.2850e+06
   3.0886e-01   9.3925e+05   1.6101e+06   1.5114e+05   9.0015e+05
   3.1392e-01   6.9483e+05   1.0346e+06   2.3792e+05   6.5579e+05
   3.1899e-01   6.3630e+05   5.2152e+05   4.8501e+05   5.4761e+05
   3.2405e-01   7.1880e+05   8.0695e+04   6.8998e+05   4.9649e+05
   3.2911e-01   8.6808e+05  -2.5819e+05   6.2574e+05   4.1187e+05
   3.3418e-01   1.0539e+06  -4.2945e+05   1.9842e+05   2.7430e+05
   3.3924e-01   1.2847e+06  -4.0052e+05  -4.4342e+05   1.4692e+05
   3.4430e-01   1.5128e+06  -2.1600e+05  -1.0041e+06   9.7565e+04
   3.4937e-01   1.6497e+06   4.6537e+04  -1.2684e+06   1.4262e+05
   3.5443e-01   1.6860e+06   3.2639e+05  -1.2289e+06   2.6116e+05
   3.5949e-01   1.6810e+06   5.9303e+05  -1.0053e+06   4.2292e+05
   3.6456e-01   1.6469e+06   8.2348e+05  -7.0183e+05   5.8951e+05
   3.6962e-01   1.5322e+06   1.0035e+06  -3.8200e+05   7.1790e+05
   3.7468e-01   1.3114e+06   1.1591e+06  -1.1149e+05   7.8635e+05
   3.7975e-01   1.0571e+06   1.3270e+06   7.8903e+04   8.2098e+05
   3.8481e-01   9.0189e+05   1.4910e+06   2.4800e+05   8.8031e+05
   3.8987e-01   9.4737e+05   1.6154e+06   4.6829e+05   1.0104e+06
   3.9494e-01   1.1919e+06   1.7230e+06   7.3314e+05   1.2160e+06
   4.0000e-01   1.5354e+06   1.8983e+06   9.5719e+05   1.4636e+06
