# auto-correlation of: jx jy jz avg
            0   8.6895e+07   8.7829e+07   8.7752e+07   8.7492e+07
   5.0336e-03   8.3797e+07   8.4714e+07   8.4647e+07   8.4386e+07
   1.0067e-02   7.5696e+07   7.6581e+07   7.6519e+07   7.6265e+07
   1.5101e-02   6.5228e+07   6.6067e+07   6.6005e+07   6.5767e+07
   2.0134e-02   5.4770e+07   5.5557e+07   5.5485e+07   5.5271e+07
   2.5168e-02   4.5666e+07   4.6406e+07   4.6314e+07   4.6129e+07
   3.0201e-02   3.8339e+07   3.9050e+07   3.8938e+07   3.8776e+07
   3.5235e-02   3.2663e+07   3.3366e+07   3.3247e+07   3.3092e+07
   4.0268e-02   2.8292e+07   2.9006e+07   2.8903e+07   2.8734e+07
   4.5302e-02   2.4886e+07   2.5612e+07   2.5559e+07   2.5353e+07
   5.0336e-02   2.2193e+07   2.2908e+07   2.2945e+07   2.2682e+07
   5.5369e-02   2.0034e+07   2.0695e+07   2.0858e+07   2.0529e+07
   6.0403e-02   1.8268e+07   1.8828e+07   1.9135e+07   1.8744e+07
   6.5436e-02   1.6777e+07   1.7205e+07   1.7643e+07   1.7208e+07
   7.0470e-02   1.5466e+07   1.5758e+07   1.6287e+07   1.5837e+07
   7.5503e-02   1.4282e+07   1.4453e+07   1.5020e+07   1.4585e+07
   8.0537e-02   1.3209e+07   1.3281e+07   1.3828e+07   1.3440e+07
   8.5570e-02   1.2263e+07   1.2242e+07   1.2722e+07   1.2409e+07
   9.0604e-02   1.1463e+07   1.1328e+07   1.1716e+07   1.1502e+07
   9.5638e-02   1.0810e+07   1.0529e+07   1.0814e+07   1.0718e+07
   1.0067e-01   1.0277e+07   9.8287e+06   1.0011e+07   1.0039e+07
   1.0570e-01   9.8159e+06   9.2120e+06   9.3019e+06   9.4433e+06
   1.1074e-01   9.3777e+06   8.6630e+06   8.6867e+06   8.9091e+06
   1.1577e-01   8.9311e+06   8.1705e+06   8.1668e+06   8.4228e+06
   1.2081e-01   8.4644e+06   7.7274e+06   7.7319e+06   7.9745e+06
   1.2584e-01   7.9810e+06   7.3268e+06   7.3591e+06   7.5556e+06
   1.3087e-01   7.4931e+06   6.9603e+06   7.0214e+06   7.1583e+06
   1.3591e-01   7.0151e+06   6.6177e+06   6.6941e+06   6.7756e+06
   1.4094e-01   6.5572e+06   6.2920e+06   6.3592e+06   6.4028e+06
   1.4597e-01   6.1233e+06   5.9835e+06   6.0097e+06   6.0388e+06
   1.5101e-01   5.7132e+06   5.6942e+06   5.6488e+06   5.6854e+06
   1.5604e-01   5.3262e+06   5.4234e+06   5.2871e+06   5.3456e+06
   1.6107e-01   4.9611e+06   5.1659e+06   4.9405e+06   5.0225e+06
   1.6611e-01   4.6177e+06   4.9131e+06   4.6292e+06   4.7200e+06
   1.7114e-01   4.2970e+06   4.6566e+06   4.3710e+06   4.4416e+06
   1.7617e-01   4.0012e+06   4.3931e+06   4.1734e+06   4.1892e+06
   1.8121e-01   3.7329e+06   4.1255e+06   4.0278e+06   3.9621e+06
   1.8624e-01   3.4955e+06   3.8618e+06   3.9126e+06   3.7566e+06
   1.9128e-01   3.2909e+06   3.6132e+06   3.8029e+06   3.5690e+06
   1.9631e-01   3.1171e+06   3.3917e+06   3.6794e+06   3.3960e+06
   2.0134e-01   2.9680e+06   3.2020e+06   3.5312e+06   3.2337e+06
   2.0638e-01   2.8342e+06   3.0366e+06   3.3576e+06   3.0761e+06
   2.1141e-01   2.7058e+06   2.8798e+06   3.1647e+06   2.9168e+06
   2.1644e-01   2.5772e+06   2.7186e+06   2.9616e+06   2.7525e+06
   2.2148e-01   2.4476e+06   2.5487e+06   2.7608e+06   2.5857e+06
   2.2651e-01   2.3140e+06   2.3733e+06   2.5770e+06   2.4214e+06
   2.3154e-01   2.1707e+06   2.2001e+06   2.4212e+06   2.2640e+06
   2.3658e-01   2.0134e+06   2.0394e+06   2.2982e+06   2.1170e+06
   2.4161e-01   1.8415e+06   1.9035e+06   2.2093e+06   1.9848e+06
   2.4664e-01   1.6567e+06   1.8009e+06   2.1508e+06   1.8695e+06
   2.5168e-01   1.4608e+06   1.7309e+06   2.1109e+06   1.7676e+06
   2.5671e-01   1.2560e+06   1.6852e+06   2.0738e+06   1.6717e+06
   2.6174e-01   1.0481e+06   1.6551e+06   2.0263e+06   1.5765e+06
   2.6678e-01   8.4626e+05   1.6349e+06   1.9598e+06   1.4803e+06
   2.7181e-01   6.5895e+05   1.6189e+06   1.8708e+06   1.3829e+06
   2.7685e-01   4.9043e+05   1.5982e+06   1.7623e+06   1.2837e+06
   2.8188e-01   3.4099e+05   1.5630e+06   1.6402e+06   1.1814e+06
   2.8691e-01   2.1008e+05   1.5070e+06   1.5087e+06   1.0752e+06
   2.9195e-01   1.0266e+05   1.4249e+06   1.3754e+06   9.6765e+05
   2.9698e-01   2.8104e+04   1.3088e+06   1.2571e+06   8.6466e+05
   3.0201e-01  -1.0386e+04   1.1513e+06   1.1740e+06   7.7162e+05
   3.0705e-01  -2.1046e+04   9.5337e+05   1.1361e+06   6.8946e+05
   3.1208e-01  -1.4522e+04   7.2856e+05   1.1345e+06   6.1616e+05
   3.1711e-01   6.0255e+03   5.0131e+05   1.1447e+06   5.5068e+05
   3.2215e-01   4.1719e+04   2.9913e+05   1.1414e+06   4.9407e+05
   3.2718e-01   8.8432e+04   1.4346e+05   1.1118e+06   4.4791e+05
   3.3221e-01   1.3653e+05   4.3523e+04   1.0595e+06   4.1319e+05
   3.3725e-01   1.8019e+05  -3.5366e+03   9.9643e+05   3.9103e+05
   3.4228e-01   2.2230e+05  -5.9927e+03   9.3650e+05   3.8427e+05
   3.4732e-01   2.6746e+05   2.9309e+04   8.8926e+05   3.9534e+05
   3.5235e-01   3.1350e+05   9.6562e+04   8.5406e+05   4.2138e+05
   3.5738e-01   3.5229e+05   1.8675e+05   8.2010e+05   4.5304e+05
   3.6242e-01   3.7606e+05   2.8489e+05   7.7479e+05   4.7858e+05
   3.6745e-01   3.8122e+05   3.7156e+05   7.1231e+05   4.8836e+05
   3.7248e-01   3.6770e+05   4.3171e+05   6.3613e+05   4.7851e+05
   3.7752e-01   3.3609e+05   4.6178e+05   5.5634e+05   4.5141e+05
   3.8255e-01   2.8488e+05   4.6715e+05   4.8214e+05   4.1139e+05
   3.8758e-01   2.1066e+05   4.5570e+05   4.1821e+05   3.6152e+05
   3.9262e-01   1.1626e+05   4.3327e+05   3.6573e+05   3.0509e+05
   3.9765e-01   1.7094e+04   4.0404e+05   3.2491e+05   2.4868e+05
   4.0268e-01  -6.5615e+04   3.7546e+05   2.9574e+05   2.0186e+05
   4.0772e-01  -1.1621e+05   3.5814e+05   2.7565e+05   1.7252e+05
   4.1275e-01  -1.2899e+05   3.5949e+05   2.5885e+05   1.6312e+05
   4.1779e-01  -1.0742e+05   3.7635e+05   2.4023e+05   1.6972e+05
   4.2282e-01  -6.1086e+04   3.9362e+05   2.1762e+05   1.8338e+05
   4.2785e-01  -1.6471e+03   3.9152e+05   1.8987e+05   1.9325e+05
   4.3289e-01   6.2416e+04   3.5766e+05   1.5557e+05   1.9188e+05
   4.3792e-01   1.2865e+05   2.9342e+05   1.1396e+05   1.7868e+05
   4.4295e-01   1.9820e+05   2.0934e+05   6.4885e+04   1.5747e+05
   4.4799e-01   2.7191e+05   1.1712e+05   9.4960e+03   1.3284e+05
   4.5302e-01   3.4809e+05   2.5582e+04  -4.6612e+04   1.0902e+05
   4.5805e-01   4.2388e+05  -6.0298e+04  -9.4341e+04   8.9746e+04
   4.6309e-01   4.9741e+05  -1.3866e+05  -1.2655e+05   7.7398e+04
   4.6812e-01   5.6933e+05  -2.0757e+05  -1.4180e+05   7.3321e+04
   4.7315e-01   6.4337e+05  -2.6214e+05  -1.4258e+05   7.9552e+04
   4.7819e-01   7.2229e+05  -2.9661e+05  -1.3318e+05   9.7503e+04
   4.8322e-01   8.0058e+05  -3.0948e+05  -1.2031e+05   1.2359e+05
   4.8826e-01   8.6296e+05  -3.0503e+05  -1.1096e+05   1.4899e+05
   4.9329e-01   8.9064e+05  -2.9118e+05  -1.0929e+05   1.6339e+05
   4.9832e-01   8.7010e+05  -2.7767e+05  -1.1415e+05   1.5943e+05
   5.0336e-01   7.9944e+05  -2.7316e+05  -1.2127e+05   1.3501e+05
   5.0839e-01   6.9262e+05  -2.8280e+05  -1.2775e+05   9.4025e+04
   5.1342e-01   5.7773e+05  -3.0688e+05  -1.3447e+05   4.5459e+04
   5.1846e-01   4.8756e+05  -3.4292e+05  -1.4429e+05   1.1517e+02
   5.2349e-01   4.4545e+05  -3.8513e+05  -1.5982e+05  -3.3167e+04
   5.2852e-01   4.5652e+05  -4.2391e+05  -1.8170e+05  -4.9697e+04
   5.3356e-01   5.0804e+05  -4.4884e+05  -2.1026e+05  -5.0353e+04
   5.3859e-01   5.7535e+05  -4.5361e+05  -2.4688e+05  -4.1713e+04
   5.4362e-01   6.3070e+05  -4.3614e+05  -2.9132e+05  -3.2253e+04
   5.4866e-01   6.5419e+05  -3.9727e+05  -3.3643e+05  -2.6503e+04
   5.5369e-01   6.4046e+05  -3.4034e+05  -3.6893e+05  -2.2938e+04
   5.5872e-01   5.9688e+05  -2.7141e+05  -3.7691e+05  -1.7148e+04
   5.6376e-01   5.3921e+05  -2.0000e+05  -3.5921e+05  -6.6655e+03
   5.6879e-01   4.8867e+05  -1.3440e+05  -3.2746e+05   8.9356e+03
   5.7383e-01   4.6487e+05  -7.6156e+04  -2.9800e+05   3.0239e+04
   5.7886e-01   4.7949e+05  -2.0807e+04  -2.8005e+05   5.9542e+04
   5.8389e-01   5.3176e+05   3.7929e+04  -2.6930e+05   1.0013e+05
   5.8893e-01   6.0908e+05   1.0758e+05  -2.5040e+05   1.5542e+05
   5.9396e-01   6.9376e+05   1.9487e+05  -2.0917e+05   2.2649e+05
   5.9899e-01   7.7035e+05   2.9862e+05  -1.4078e+05   3.0940e+05
   6.0403e-01   8.2603e+05   4.0727e+05  -5.0291e+04   3.9434e+05
   6.0906e-01   8.4847e+05   5.0384e+05   4.9637e+04   4.6731e+05
   6.1409e-01   8.2820e+05   5.7105e+05   1.4287e+05   5.1404e+05
   6.1913e-01   7.6417e+05   5.9641e+05   2.1709e+05   5.2589e+05
   6.2416e-01   6.6506e+05   5.7752e+05   2.6856e+05   5.0371e+05
   6.2919e-01   5.4574e+05   5.2309e+05   2.9903e+05   4.5595e+05
   6.3423e-01   4.2249e+05   4.4715e+05   3.1152e+05   3.9372e+05
   6.3926e-01   3.1113e+05   3.6410e+05   3.0882e+05   3.2802e+05
   6.4430e-01   2.2422e+05   2.8626e+05   2.9279e+05   2.6776e+05
   6.4933e-01   1.6775e+05   2.2179e+05   2.6287e+05   2.1747e+05
   6.5436e-01   1.3847e+05   1.7203e+05   2.1544e+05   1.7531e+05
   6.5940e-01   1.2596e+05   1.3160e+05   1.4488e+05   1.3415e+05
   6.6443e-01   1.1980e+05   9.2847e+04   5.1384e+04   8.8011e+04
   6.6946e-01   1.1832e+05   4.9035e+04  -5.0503e+04   3.8951e+04
   6.7450e-01   1.3014e+05  -5.2714e+03  -1.3491e+05  -3.3449e+03
   6.7953e-01   1.6785e+05  -7.2040e+04  -1.7903e+05  -2.7738e+04
   6.8456e-01   2.3733e+05  -1.4729e+05  -1.7765e+05  -2.9202e+04
   6.8960e-01   3.3048e+05  -2.2543e+05  -1.4613e+05  -1.3698e+04
   6.9463e-01   4.2769e+05  -3.0565e+05  -1.1012e+05   3.9742e+03
   6.9966e-01   5.0512e+05  -3.9022e+05  -8.9102e+04   8.5982e+03
   7.0470e-01   5.4450e+05  -4.7574e+05  -8.8380e+04  -6.5391e+03
   7.0973e-01   5.4393e+05  -5.5257e+05  -9.9740e+04  -3.6128e+04
   7.1477e-01   5.2025e+05  -6.1306e+05  -1.0555e+05  -6.6118e+04
   7.1980e-01   4.9700e+05  -6.5517e+05  -8.8493e+04  -8.2221e+04
   7.2483e-01   4.8685e+05  -6.7956e+05  -4.4673e+04  -7.9128e+04
   7.2987e-01   4.8442e+05  -6.8738e+05   1.1478e+04  -6.3827e+04
   7.3490e-01   4.7471e+05  -6.8439e+05   5.6297e+04  -5.1129e+04
   7.3993e-01   4.4539e+05  -6.8213e+05   7.0420e+04  -5.5440e+04
   7.4497e-01   3.9072e+05  -6.9203e+05   4.4527e+04  -8.5595e+04
   7.5000e-01   3.0849e+05  -7.1922e+05  -1.9405e+04  -1.4338e+05
