# auto-correlation of: jx jy jz avg
            0   9.2024e+07   9.1573e+07   9.2452e+07   9.2016e+07
   5.0505e-03   8.8140e+07   8.7710e+07   8.8539e+07   8.8129e+07
   1.0101e-02   7.8146e+07   7.7781e+07   7.8476e+07   7.8134e+07
   1.5152e-02   6.5570e+07   6.5300e+07   6.5796e+07   6.5555e+07
   2.0202e-02   5.3393e+07   5.3228e+07   5.3494e+07   5.3372e+07
   2.5253e-02   4.3138e+07   4.3058e+07   4.3096e+07   4.3097e+07
   3.0303e-02   3.5162e+07   3.5118e+07   3.4968e+07   3.5083e+07
   3.5354e-02   2.9183e+07   2.9113e+07   2.8839e+07   2.9045e+07
   4.0404e-02   2.4705e+07   2.4552e+07   2.4221e+07   2.4493e+07
   4.5455e-02   2.1276e+07   2.1014e+07   2.0674e+07   2.0988e+07
   5.0505e-02   1.8578e+07   1.8212e+07   1.7888e+07   1.8226e+07
   5.5556e-02   1.6404e+07   1.5965e+07   1.5655e+07   1.6008e+07
   6.0606e-02   1.4609e+07   1.4142e+07   1.3830e+07   1.4194e+07
   6.5657e-02   1.3084e+07   1.2630e+07   1.2307e+07   1.2674e+07
   7.0707e-02   1.1747e+07   1.1338e+07   1.1007e+07   1.1364e+07
   7.5758e-02   1.0546e+07   1.0198e+07   9.8727e+06   1.0205e+07
   8.0808e-02   9.4575e+06   9.1671e+06   8.8648e+06   9.1632e+06
   8.5859e-02   8.4730e+06   8.2270e+06   7.9628e+06   8.2209e+06
   9.0909e-02   7.5883e+06   7.3708e+06   7.1582e+06   7.3724e+06
   9.5960e-02   6.8013e+06   6.5964e+06   6.4486e+06   6.6155e+06
   1.0101e-01   6.1137e+06   5.9015e+06   5.8303e+06   5.9485e+06
   1.0606e-01   5.5298e+06   5.2830e+06   5.2916e+06   5.3681e+06
   1.1111e-01   5.0487e+06   4.7338e+06   4.8132e+06   4.8652e+06
   1.1616e-01   4.6585e+06   4.2437e+06   4.3760e+06   4.4261e+06
   1.2121e-01   4.3392e+06   3.8008e+06   3.9712e+06   4.0371e+06
   1.2626e-01   4.0648e+06   3.3938e+06   3.6007e+06   3.6864e+06
   1.3131e-01   3.8097e+06   3.0156e+06   3.2690e+06   3.3648e+06
   1.3636e-01   3.5576e+06   2.6661e+06   2.9776e+06   3.0671e+06
   1.4141e-01   3.3075e+06   2.3492e+06   2.7278e+06   2.7948e+06
   1.4646e-01   3.0665e+06   2.0676e+06   2.5217e+06   2.5519e+06
   1.5152e-01   2.8356e+06   1.8198e+06   2.3613e+06   2.3389e+06
   1.5657e-01   2.6041e+06   1.5974e+06   2.2421e+06   2.1479e+06
   1.6162e-01   2.3579e+06   1.3896e+06   2.1486e+06   1.9654e+06
   1.6667e-01   2.0939e+06   1.1936e+06   2.0627e+06   1.7834e+06
   1.7172e-01   1.8212e+06   1.0171e+06   1.9739e+06   1.6040e+06
   1.7677e-01   1.5523e+06   8.6899e+05   1.8823e+06   1.4345e+06
   1.8182e-01   1.2980e+06   7.4691e+05   1.7981e+06   1.2810e+06
   1.8687e-01   1.0722e+06   6.3831e+05   1.7352e+06   1.1486e+06
   1.9192e-01   8.9182e+05   5.2928e+05   1.6998e+06   1.0403e+06
   1.9697e-01   7.6750e+05   4.1311e+05   1.6864e+06   9.5566e+05
   2.0202e-01   6.9940e+05   2.9206e+05   1.6813e+06   8.9093e+05
   2.0707e-01   6.7940e+05   1.7878e+05   1.6685e+06   8.4222e+05
   2.1212e-01   6.9354e+05   9.2532e+04   1.6312e+06   8.0576e+05
   2.1717e-01   7.2032e+05   4.5870e+04   1.5574e+06   7.7454e+05
   2.2222e-01   7.3342e+05   3.2101e+04   1.4480e+06   7.3783e+05
   2.2727e-01   7.0999e+05   2.3722e+04   1.3163e+06   6.8333e+05
   2.3232e-01   6.3687e+05  -1.1130e+04   1.1753e+06   6.0036e+05
   2.3737e-01   5.1536e+05  -8.4178e+04   1.0299e+06   4.8703e+05
   2.4242e-01   3.6339e+05  -1.7905e+05   8.8303e+05   3.5579e+05
   2.4747e-01   2.1151e+05  -2.6859e+05   7.4558e+05   2.2950e+05
   2.5253e-01   9.2982e+04  -3.3366e+05   6.3515e+05   1.3149e+05
   2.5758e-01   2.9225e+04  -3.6745e+05   5.6682e+05   7.6202e+04
   2.6263e-01   1.9790e+04  -3.7275e+05   5.4429e+05   6.3778e+04
   2.6768e-01   4.6326e+04  -3.6088e+05   5.5806e+05   8.1167e+04
   2.7273e-01   8.4196e+04  -3.4530e+05   5.8657e+05   1.0849e+05
   2.7778e-01   1.1562e+05  -3.3400e+05   6.0361e+05   1.2841e+05
   2.8283e-01   1.3643e+05  -3.3248e+05   5.9174e+05   1.3190e+05
   2.8788e-01   1.5342e+05  -3.5011e+05   5.5174e+05   1.1835e+05
   2.9293e-01   1.7630e+05  -3.9483e+05   4.9669e+05   9.2719e+04
   2.9798e-01   2.1149e+05  -4.6140e+05   4.3834e+05   6.2808e+04
   3.0303e-01   2.5996e+05  -5.3265e+05   3.8272e+05   3.6674e+04
   3.0808e-01   3.1627e+05  -5.8881e+05   3.3763e+05   2.1696e+04
   3.1313e-01   3.6881e+05  -6.1651e+05   3.1550e+05   2.2600e+04
   3.1818e-01   4.0237e+05  -6.1425e+05   3.2507e+05   3.7731e+04
   3.2323e-01   4.0434e+05  -5.9145e+05   3.6192e+05   5.8270e+04
   3.2828e-01   3.7154e+05  -5.5866e+05   4.0987e+05   7.4248e+04
   3.3333e-01   3.1236e+05  -5.2076e+05   4.4948e+05   8.0359e+04
   3.3838e-01   2.4459e+05  -4.7656e+05   4.6532e+05   7.7782e+04
   3.4343e-01   1.9003e+05  -4.2275e+05   4.5209e+05   7.3124e+04
   3.4848e-01   1.6802e+05  -3.5985e+05   4.1678e+05   7.4984e+04
   3.5354e-01   1.8988e+05  -2.9710e+05   3.7409e+05   8.8957e+04
   3.5859e-01   2.5153e+05  -2.4859e+05   3.3552e+05   1.1282e+05
   3.6364e-01   3.3219e+05  -2.2304e+05   3.0296e+05   1.3737e+05
   3.6869e-01   4.0072e+05  -2.1992e+05   2.7168e+05   1.5083e+05
   3.7374e-01   4.2963e+05  -2.3315e+05   2.3716e+05   1.4455e+05
   3.7879e-01   4.0684e+05  -2.5847e+05   1.9867e+05   1.1568e+05
   3.8384e-01   3.4152e+05  -2.9626e+05   1.5909e+05   6.8116e+04
   3.8889e-01   2.6051e+05  -3.4776e+05   1.2218e+05   1.1644e+04
   3.9394e-01   1.9671e+05  -4.1100e+05   9.0076e+04  -4.1404e+04
   3.9899e-01   1.7398e+05  -4.7897e+05   6.3887e+04  -8.0366e+04
   4.0404e-01   1.9966e+05  -5.3837e+05   4.4147e+04  -9.8188e+04
   4.0909e-01   2.6639e+05  -5.7088e+05   2.6436e+04  -9.2686e+04
   4.1414e-01   3.5885e+05  -5.6206e+05   3.0475e+03  -6.6721e+04
   4.1919e-01   4.6252e+05  -5.1128e+05  -2.8761e+04  -2.5841e+04
   4.2424e-01   5.6808e+05  -4.3343e+05  -6.3897e+04   2.3584e+04
   4.2929e-01   6.6893e+05  -3.5125e+05  -9.4789e+04   7.4298e+04
   4.3434e-01   7.5614e+05  -2.8438e+05  -1.1629e+05   1.1849e+05
   4.3939e-01   8.1694e+05  -2.4264e+05  -1.2746e+05   1.4895e+05
   4.4444e-01   8.3912e+05  -2.2540e+05  -1.3064e+05   1.6103e+05
   4.4949e-01   8.1488e+05  -2.2584e+05  -1.3153e+05   1.5250e+05
   4.5455e-01   7.4283e+05  -2.3436e+05  -1.4029e+05   1.2273e+05
   4.5960e-01   6.2871e+05  -2.4374e+05  -1.6875e+05   7.2077e+04
   4.6465e-01   4.8875e+05  -2.5437e+05  -2.2139e+05   4.3300e+03
   4.6970e-01   3.4895e+05  -2.7061e+05  -2.9183e+05  -7.1165e+04
   4.7475e-01   2.3544e+05  -2.9183e+05  -3.6643e+05  -1.4094e+05
   4.7980e-01   1.6364e+05  -3.1280e+05  -4.2897e+05  -1.9271e+05
   4.8485e-01   1.3648e+05  -3.2984e+05  -4.6602e+05  -2.1979e+05
   4.8990e-01   1.5019e+05  -3.4207e+05  -4.7382e+05  -2.2190e+05
   4.9495e-01   1.9815e+05  -3.4908e+05  -4.6246e+05  -2.0446e+05
   5.0000e-01   2.6667e+05  -3.4814e+05  -4.4792e+05  -1.7646e+05
