# auto-correlation of: jx jy jz avg
            0   2.2068e+08   2.1456e+08   2.1576e+08   2.1700e+08
   5.0336e-03   2.1000e+08   2.0394e+08   2.0513e+08   2.0636e+08
   1.0067e-02   1.8372e+08   1.7784e+08   1.7900e+08   1.8019e+08
   1.5101e-02   1.5319e+08   1.4755e+08   1.4868e+08   1.4981e+08
   2.0134e-02   1.2646e+08   1.2108e+08   1.2217e+08   1.2324e+08
   2.5168e-02   1.0598e+08   1.0084e+08   1.0186e+08   1.0289e+08
   3.0201e-02   9.1013e+07   8.6117e+07   8.6978e+07   8.8036e+07
   3.5235e-02   8.0054e+07   7.5390e+07   7.6080e+07   7.7175e+07
   4.0268e-02   7.1840e+07   6.7374e+07   6.7972e+07   6.9062e+07
   4.5302e-02   6.5434e+07   6.1131e+07   6.1759e+07   6.2775e+07
   5.0336e-02   6.0102e+07   5.5962e+07   5.6677e+07   5.7580e+07
   5.5369e-02   5.5323e+07   5.1380e+07   5.2153e+07   5.2952e+07
   6.0403e-02   5.0890e+07   4.7159e+07   4.7952e+07   4.8667e+07
   6.5436e-02   4.6879e+07   4.3308e+07   4.4147e+07   4.4778e+07
   7.0470e-02   4.3448e+07   3.9946e+07   4.0901e+07   4.1431e+07
   7.5503e-02   4.0635e+07   3.7155e+07   3.8264e+07   3.8685e+07
   8.0537e-02   3.8320e+07   3.4911e+07   3.6132e+07   3.6454e+07
   8.5570e-02   3.6325e+07   3.3099e+07   3.4317e+07   3.4580e+07
   9.0604e-02   3.4523e+07   3.1575e+07   3.2652e+07   3.2917e+07
   9.5638e-02   3.2858e+07   3.0222e+07   3.1048e+07   3.1376e+07
   1.0067e-01   3.1304e+07   2.8962e+07   2.9499e+07   2.9922e+07
   1.0570e-01   2.9842e+07   2.7748e+07   2.8053e+07   2.8548e+07
   1.1074e-01   2.8459e+07   2.6541e+07   2.6765e+07   2.7255e+07
   1.1577e-01   2.7153e+07   2.5313e+07   2.5661e+07   2.6042e+07
   1.2081e-01   2.5952e+07   2.4068e+07   2.4720e+07   2.4913e+07
   1.2584e-01   2.4887e+07   2.2840e+07   2.3885e+07   2.3871e+07
   1.3087e-01   2.3955e+07   2.1684e+07   2.3100e+07   2.2913e+07
   1.3591e-01   2.3109e+07   2.0651e+07   2.2325e+07   2.2028e+07
   1.4094e-01   2.2286e+07   1.9751e+07   2.1532e+07   2.1190e+07
   1.4597e-01   2.1439e+07   1.8947e+07   2.0695e+07   2.0360e+07
   1.5101e-01   2.0554e+07   1.8188e+07   1.9788e+07   1.9510e+07
   1.5604e-01   1.9649e+07   1.7450e+07   1.8812e+07   1.8637e+07
   1.6107e-01   1.8755e+07   1.6731e+07   1.7804e+07   1.7763e+07
   1.6611e-01   1.7896e+07   1.6052e+07   1.6821e+07   1.6923e+07
   1.7114e-01   1.7091e+07   1.5454e+07   1.5911e+07   1.6152e+07
   1.7617e-01   1.6351e+07   1.4970e+07   1.5090e+07   1.5471e+07
   1.8121e-01   1.5662e+07   1.4564e+07   1.4338e+07   1.4855e+07
   1.8624e-01   1.4986e+07   1.4139e+07   1.3633e+07   1.4253e+07
   1.9128e-01   1.4294e+07   1.3623e+07   1.2984e+07   1.3633e+07
   1.9631e-01   1.3581e+07   1.3025e+07   1.2418e+07   1.3008e+07
   2.0134e-01   1.2869e+07   1.2391e+07   1.1963e+07   1.2408e+07
   2.0638e-01   1.2195e+07   1.1739e+07   1.1637e+07   1.1857e+07
   2.1141e-01   1.1592e+07   1.1068e+07   1.1434e+07   1.1365e+07
   2.1644e-01   1.1056e+07   1.0391e+07   1.1306e+07   1.0918e+07
   2.2148e-01   1.0547e+07   9.7403e+06   1.1182e+07   1.0490e+07
   2.2651e-01   1.0032e+07   9.1383e+06   1.0987e+07   1.0052e+07
   2.3154e-01   9.5224e+06   8.6014e+06   1.0688e+07   9.6038e+06
   2.3658e-01   9.0607e+06   8.1591e+06   1.0330e+07   9.1832e+06
   2.4161e-01   8.6717e+06   7.8518e+06   1.0022e+07   8.8485e+06
   2.4664e-01   8.3533e+06   7.6838e+06   9.8522e+06   8.6298e+06
   2.5168e-01   8.0908e+06   7.6098e+06   9.8029e+06   8.5012e+06
   2.5671e-01   7.8589e+06   7.5763e+06   9.7575e+06   8.3976e+06
   2.6174e-01   7.6220e+06   7.5474e+06   9.5926e+06   8.2540e+06
   2.6678e-01   7.3595e+06   7.4938e+06   9.2712e+06   8.0415e+06
   2.7181e-01   7.0853e+06   7.3945e+06   8.8393e+06   7.7730e+06
   2.7685e-01   6.8312e+06   7.2449e+06   8.3570e+06   7.4777e+06
   2.8188e-01   6.6137e+06   7.0625e+06   7.8664e+06   7.1809e+06
   2.8691e-01   6.4240e+06   6.8651e+06   7.4145e+06   6.9012e+06
   2.9195e-01   6.2382e+06   6.6470e+06   7.0564e+06   6.6472e+06
   2.9698e-01   6.0270e+06   6.3943e+06   6.8112e+06   6.4108e+06
   3.0201e-01   5.7618e+06   6.1297e+06   6.6257e+06   6.1724e+06
   3.0705e-01   5.4406e+06   5.9090e+06   6.4189e+06   5.9229e+06
   3.1208e-01   5.0992e+06   5.7605e+06   6.1583e+06   5.6727e+06
   3.1711e-01   4.7872e+06   5.6560e+06   5.8733e+06   5.4388e+06
   3.2215e-01   4.5427e+06   5.5604e+06   5.6067e+06   5.2366e+06
   3.2718e-01   4.3864e+06   5.4718e+06   5.3821e+06   5.0801e+06
   3.3221e-01   4.3174e+06   5.4068e+06   5.2082e+06   4.9775e+06
   3.3725e-01   4.2979e+06   5.3698e+06   5.0927e+06   4.9201e+06
   3.4228e-01   4.2627e+06   5.3417e+06   5.0504e+06   4.8849e+06
   3.4732e-01   4.1598e+06   5.2929e+06   5.0824e+06   4.8450e+06
   3.5235e-01   3.9823e+06   5.2161e+06   5.1510e+06   4.7831e+06
   3.5738e-01   3.7713e+06   5.1341e+06   5.1955e+06   4.7003e+06
   3.6242e-01   3.5713e+06   5.0620e+06   5.1677e+06   4.6004e+06
   3.6745e-01   3.3902e+06   4.9803e+06   5.0435e+06   4.4714e+06
   3.7248e-01   3.2169e+06   4.8603e+06   4.8216e+06   4.2996e+06
   3.7752e-01   3.0552e+06   4.7035e+06   4.5323e+06   4.0970e+06
   3.8255e-01   2.9168e+06   4.5323e+06   4.2326e+06   3.8939e+06
   3.8758e-01   2.7976e+06   4.3545e+06   3.9727e+06   3.7083e+06
   3.9262e-01   2.6852e+06   4.1607e+06   3.7726e+06   3.5395e+06
   3.9765e-01   2.5772e+06   3.9526e+06   3.6204e+06   3.3834e+06
   4.0268e-01   2.4771e+06   3.7600e+06   3.4877e+06   3.2416e+06
   4.0772e-01   2.3660e+06   3.6355e+06   3.3434e+06   3.1150e+06
   4.1275e-01   2.2081e+06   3.6146e+06   3.1593e+06   2.9940e+06
   4.1779e-01   2.0072e+06   3.6715e+06   2.9216e+06   2.8668e+06
   4.2282e-01   1.8226e+06   3.7320e+06   2.6365e+06   2.7304e+06
   4.2785e-01   1.7102e+06   3.7343e+06   2.3140e+06   2.5862e+06
   4.3289e-01   1.6713e+06   3.6552e+06   1.9705e+06   2.4323e+06
   4.3792e-01   1.6591e+06   3.5171e+06   1.6515e+06   2.2759e+06
   4.4295e-01   1.6081e+06   3.3798e+06   1.4212e+06   2.1363e+06
   4.4799e-01   1.4736e+06   3.3073e+06   1.3234e+06   2.0348e+06
   4.5302e-01   1.2680e+06   3.3197e+06   1.3592e+06   1.9823e+06
   4.5805e-01   1.0409e+06   3.3678e+06   1.4850e+06   1.9646e+06
   4.6309e-01   8.3804e+05   3.3545e+06   1.6317e+06   1.9414e+06
   4.6812e-01   6.8448e+05   3.1936e+06   1.7346e+06   1.8709e+06
   4.7315e-01   5.8006e+05   2.8696e+06   1.7596e+06   1.7364e+06
   4.7819e-01   4.9590e+05   2.4529e+06   1.7227e+06   1.5572e+06
   4.8322e-01   4.0230e+05   2.0524e+06   1.6768e+06   1.3772e+06
   4.8826e-01   3.0481e+05   1.7463e+06   1.6649e+06   1.2387e+06
   4.9329e-01   2.3254e+05   1.5539e+06   1.6891e+06   1.1585e+06
   4.9832e-01   2.0742e+05   1.4559e+06   1.7298e+06   1.1310e+06
   5.0336e-01   2.3159e+05   1.4236e+06   1.7753e+06   1.1435e+06
   5.0839e-01   2.9878e+05   1.4393e+06   1.8152e+06   1.1844e+06
   5.1342e-01   4.1859e+05   1.4937e+06   1.8183e+06   1.2435e+06
   5.1846e-01   6.1614e+05   1.5672e+06   1.7363e+06   1.3065e+06
   5.2349e-01   8.9754e+05   1.6160e+06   1.5357e+06   1.3497e+06
   5.2852e-01   1.2220e+06   1.5880e+06   1.2285e+06   1.3462e+06
   5.3356e-01   1.5204e+06   1.4481e+06   8.8241e+05   1.2836e+06
   5.3859e-01   1.7335e+06   1.2029e+06   5.7708e+05   1.1711e+06
   5.4362e-01   1.8284e+06   9.1842e+05   3.5102e+05   1.0326e+06
   5.4866e-01   1.8030e+06   6.7520e+05   1.9140e+05   8.8987e+05
   5.5369e-01   1.6949e+06   5.0863e+05   7.8993e+04   7.6084e+05
   5.5872e-01   1.5723e+06   4.0736e+05   2.3281e+04   6.6765e+05
   5.6376e-01   1.4916e+06   3.4829e+05   4.9805e+04   6.2990e+05
   5.6879e-01   1.4586e+06   3.1557e+05   1.6183e+05   6.4534e+05
   5.7383e-01   1.4451e+06   3.0425e+05   3.2443e+05   6.9126e+05
   5.7886e-01   1.4249e+06   3.2431e+05   4.7601e+05   7.4175e+05
   5.8389e-01   1.3980e+06   3.9452e+05   5.5692e+05   7.8316e+05
   5.8893e-01   1.3952e+06   5.2406e+05   5.4159e+05   8.2029e+05
   5.9396e-01   1.4585e+06   6.9890e+05   4.5106e+05   8.6948e+05
   5.9899e-01   1.6014e+06   8.8995e+05   3.2087e+05   9.3741e+05
   6.0403e-01   1.7850e+06   1.0734e+06   1.5612e+05   1.0048e+06
   6.0906e-01   1.9335e+06   1.2441e+06  -6.7894e+04   1.0366e+06
   6.1409e-01   1.9713e+06   1.4169e+06  -3.6001e+05   1.0094e+06
   6.1913e-01   1.8602e+06   1.6136e+06  -6.8723e+05   9.2886e+05
   6.2416e-01   1.6077e+06   1.8485e+06  -1.0072e+06   8.1635e+05
   6.2919e-01   1.2562e+06   2.1103e+06  -1.3015e+06   6.8834e+05
   6.3423e-01   8.6593e+05   2.3527e+06  -1.5571e+06   5.5385e+05
   6.3926e-01   4.9932e+05   2.5175e+06  -1.7429e+06   4.2465e+05
   6.4430e-01   2.0075e+05   2.5886e+06  -1.8233e+06   3.2202e+05
   6.4933e-01  -6.8577e+02   2.6007e+06  -1.7894e+06   2.7021e+05
   6.5436e-01  -8.3760e+04   2.5823e+06  -1.6825e+06   2.7202e+05
   6.5940e-01  -4.7288e+04   2.5183e+06  -1.5733e+06   2.9926e+05
   6.6443e-01   6.4683e+04   2.3788e+06  -1.4972e+06   3.1543e+05
   6.6946e-01   1.7650e+05   2.1541e+06  -1.4234e+06   3.0238e+05
   6.7450e-01   2.2752e+05   1.8639e+06  -1.3084e+06   2.6099e+05
   6.7953e-01   1.8965e+05   1.5522e+06  -1.1565e+06   1.9513e+05
   6.8456e-01   6.1108e+04   1.2673e+06  -1.0185e+06   1.0332e+05
   6.8960e-01  -1.2933e+05   1.0346e+06  -9.4057e+05  -1.1778e+04
   6.9463e-01  -3.2381e+05   8.4829e+05  -9.2366e+05  -1.3306e+05
   6.9966e-01  -4.6987e+05   6.9513e+05  -9.3029e+05  -2.3501e+05
   7.0470e-01  -5.5719e+05   5.8967e+05  -9.3570e+05  -3.0108e+05
   7.0973e-01  -6.1237e+05   5.6089e+05  -9.4091e+05  -3.3080e+05
   7.1477e-01  -6.6883e+05   6.1543e+05  -9.5361e+05  -3.3567e+05
   7.1980e-01  -7.2915e+05   7.2387e+05  -9.7441e+05  -3.2656e+05
   7.2483e-01  -7.5269e+05   8.2753e+05  -9.9137e+05  -3.0551e+05
   7.2987e-01  -7.0305e+05   8.6988e+05  -9.9062e+05  -2.7460e+05
   7.3490e-01  -6.1570e+05   8.2775e+05  -9.7696e+05  -2.5497e+05
   7.3993e-01  -5.9427e+05   7.2339e+05  -9.7461e+05  -2.8183e+05
   7.4497e-01  -7.1961e+05   6.0607e+05  -1.0144e+06  -3.7597e+05
   7.5000e-01  -9.7637e+05   5.0893e+05  -1.1264e+06  -5.3127e+05
