# integrated auto-correlation of: jx jy jz avg
0 0 0 0 0
0.00503356 0.000814981 0.000815082 0.000821431 0.000817165
0.0100671 0.00156689 0.0015674 0.00157991 0.0015714
0.0151007 0.00221627 0.00221775 0.002236 0.00222334
0.0201342 0.00275321 0.00275637 0.00277966 0.00276308
0.0251678 0.00318818 0.00319383 0.00322118 0.00320106
0.0302013 0.00354011 0.00354914 0.00357936 0.0035562
0.0352349 0.00382818 0.00384156 0.00387344 0.00384773
0.0402685 0.00406802 0.00408676 0.00411928 0.00409135
0.045302 0.00427103 0.00429602 0.00432861 0.00429855
0.0503356 0.0044453 0.00447712 0.00450971 0.00447737
0.0553691 0.00459672 0.00463554 0.00466839 0.00463355
0.0604027 0.0047297 0.00477527 0.00480872 0.00477123
0.0654362 0.00484751 0.00489917 0.0049335 0.00489339
0.0704698 0.0049525 0.00500927 0.00504466 0.00500214
0.0755034 0.00504636 0.00510701 0.00514358 0.00509898
0.0805369 0.00513037 0.0051936 0.00523141 0.00518513
0.0855705 0.00520568 0.0052703 0.00530922 0.00526173
0.090604 0.00527341 0.00533845 0.00537811 0.00532999
0.0956376 0.00533461 0.00539946 0.00543919 0.00539109
0.100671 0.00539019 0.0054547 0.0054934 0.0054461
0.105705 0.00544082 0.00550531 0.00554149 0.00549588
0.110738 0.005487 0.0055521 0.00558404 0.00554105
0.115772 0.00552909 0.0055955 0.00562149 0.00558203
0.120805 0.00556747 0.00563571 0.00565422 0.00561914
0.125839 0.00560246 0.00567291 0.00568265 0.00565267
0.130872 0.00563435 0.00570735 0.00570718 0.00568296
0.135906 0.00566341 0.00573941 0.00572826 0.00571036
0.14094 0.00568983 0.00576944 0.00574637 0.00573521
0.145973 0.00571379 0.00579766 0.00576198 0.00575781
0.151007 0.00573537 0.00582408 0.00577554 0.00577833
0.15604 0.0057546 0.00584844 0.00578748 0.00579684
0.161074 0.00577157 0.00587046 0.00579813 0.00581339
0.166107 0.0057865 0.00588996 0.00580764 0.00582803
0.171141 0.0057997 0.00590704 0.00581605 0.00584093
0.176174 0.00581141 0.00592214 0.00582333 0.00585229
0.181208 0.00582174 0.00593582 0.00582947 0.00586234
0.186242 0.00583064 0.0059486 0.00583453 0.00587125
0.191275 0.00583805 0.00596074 0.00583859 0.00587913
0.196309 0.00584409 0.00597223 0.00584176 0.00588603
0.201342 0.00584905 0.00598289 0.00584411 0.00589202
0.206376 0.00585328 0.0059925 0.00584569 0.00589716
0.211409 0.00585707 0.00600092 0.00584649 0.0059015
0.216443 0.0058606 0.00600819 0.00584654 0.00590511
0.221477 0.00586389 0.00601448 0.00584591 0.00590809
0.22651 0.00586689 0.0060201 0.00584463 0.00591054
0.231544 0.00586953 0.00602531 0.0058427 0.00591251
0.236577 0.00587181 0.00603022 0.00584002 0.00591401
0.241611 0.00587383 0.00603472 0.00583654 0.00591503
0.246644 0.00587573 0.00603861 0.00583233 0.00591556
0.251678 0.00587762 0.00604172 0.00582766 0.00591567
0.256711 0.00587951 0.00604401 0.00582293 0.00591548
0.261745 0.00588141 0.00604565 0.00581861 0.00591522
0.266779 0.00588335 0.00604699 0.00581505 0.00591513
0.271812 0.00588541 0.00604845 0.00581247 0.00591544
0.276846 0.00588764 0.00605031 0.00581093 0.00591629
0.281879 0.00588998 0.00605262 0.00581035 0.00591765
0.286913 0.00589228 0.00605521 0.00581061 0.00591936
0.291946 0.00589424 0.00605785 0.00581165 0.00592125
0.29698 0.0058957 0.00606044 0.00581344 0.00592319
0.302013 0.00589663 0.00606315 0.00581587 0.00592522
0.307047 0.00589728 0.00606628 0.00581874 0.00592743
0.312081 0.00589793 0.00607002 0.0058218 0.00592992
0.317114 0.00589876 0.00607436 0.00582477 0.00593263
0.322148 0.00589968 0.00607901 0.00582744 0.00593538
0.327181 0.00590043 0.00608356 0.00582961 0.00593787
0.332215 0.00590059 0.0060876 0.00583118 0.00593979
0.337248 0.00589986 0.0060908 0.00583208 0.00594092
0.342282 0.00589809 0.00609296 0.00583239 0.00594115
0.347315 0.00589539 0.00609397 0.00583227 0.00594054
0.352349 0.00589209 0.00609391 0.00583194 0.00593931
0.357383 0.0058886 0.00609296 0.00583157 0.00593771
0.362416 0.00588528 0.00609132 0.00583124 0.00593595
0.36745 0.00588236 0.00608914 0.00583091 0.00593414
0.372483 0.00587991 0.00608648 0.00583055 0.00593231
0.377517 0.00587782 0.00608334 0.00583024 0.00593047
0.38255 0.00587588 0.00607974 0.0058302 0.00592861
0.387584 0.00587379 0.00607569 0.00583075 0.00592674
0.392617 0.00587132 0.00607128 0.00583212 0.00592491
0.397651 0.00586847 0.00606667 0.00583446 0.0059232
0.402685 0.00586539 0.00606212 0.00583773 0.00592175
0.407718 0.00586238 0.00605796 0.00584176 0.0059207
0.412752 0.00585968 0.0060544 0.00584617 0.00592008
0.417785 0.00585742 0.00605146 0.00585053 0.0059198
0.422819 0.0058556 0.00604894 0.0058544 0.00591965
0.427852 0.00585411 0.00604646 0.00585753 0.00591937
0.432886 0.00585276 0.00604367 0.00585989 0.00591878
0.437919 0.00585137 0.00604034 0.00586168 0.00591779
0.442953 0.00584981 0.0060364 0.00586321 0.00591647
0.447987 0.00584804 0.00603202 0.0058648 0.00591495
0.45302 0.005846 0.00602747 0.00586665 0.00591338
0.458054 0.00584364 0.00602301 0.00586877 0.00591181
0.463087 0.00584089 0.00601876 0.005871 0.00591022
0.468121 0.00583781 0.00601473 0.00587303 0.00590852
0.473154 0.00583461 0.00601085 0.00587456 0.00590667
0.478188 0.00583163 0.00600707 0.00587524 0.00590465
0.483221 0.00582926 0.00600327 0.00587483 0.00590245
0.488255 0.0058278 0.00599937 0.00587319 0.00590012
0.493289 0.0058274 0.00599534 0.00587031 0.00589768
0.498322 0.00582796 0.00599126 0.00586624 0.00589516
0.503356 0.0058293 0.00598733 0.00586102 0.00589255
0.508389 0.00583119 0.00598373 0.00585473 0.00588988
0.513423 0.00583348 0.00598056 0.00584757 0.0058872
0.518456 0.0058361 0.00597778 0.00583987 0.00588458
0.52349 0.00583906 0.00597525 0.00583206 0.00588212
0.528523 0.00584236 0.00597285 0.0058245 0.0058799
0.533557 0.00584606 0.00597046 0.00581746 0.00587799
0.538591 0.00585031 0.00596807 0.00581097 0.00587645
0.543624 0.00585526 0.00596572 0.00580495 0.00587531
0.548658 0.005861 0.00596351 0.00579929 0.0058746
0.553691 0.00586751 0.00596152 0.00579396 0.00587433
0.558725 0.00587462 0.00595981 0.005789 0.00587448
0.563758 0.00588215 0.00595839 0.00578451 0.00587502
0.568792 0.00588991 0.00595727 0.00578056 0.00587591
0.573826 0.00589771 0.00595646 0.00577711 0.00587709
0.578859 0.00590544 0.00595598 0.00577398 0.00587846
0.583893 0.00591303 0.00595574 0.00577089 0.00587988
0.588926 0.00592049 0.00595552 0.00576762 0.00588121
0.59396 0.00592778 0.00595499 0.00576416 0.00588231
0.598993 0.00593481 0.00595387 0.00576071 0.00588313
0.604027 0.00594142 0.005952 0.00575758 0.00588367
0.60906 0.00594751 0.00594946 0.005755 0.00588399
0.614094 0.00595308 0.00594648 0.00575307 0.00588421
0.619128 0.00595825 0.00594331 0.00575174 0.00588443
0.624161 0.00596325 0.00594018 0.00575089 0.00588477
0.629195 0.00596836 0.00593725 0.00575035 0.00588532
0.634228 0.00597388 0.00593458 0.00574992 0.00588613
0.639262 0.00597995 0.00593207 0.00574936 0.00588713
0.644295 0.00598655 0.00592949 0.0057484 0.00588815
0.649329 0.00599353 0.0059266 0.00574681 0.00588898
0.654362 0.00600062 0.00592321 0.00574452 0.00588945
0.659396 0.0060075 0.00591926 0.00574162 0.00588946
0.66443 0.00601389 0.00591479 0.00573831 0.005889
0.669463 0.00601961 0.00590991 0.0057348 0.0058881
0.674497 0.00602454 0.00590474 0.00573126 0.00588685
0.67953 0.00602866 0.00589928 0.00572783 0.00588526
0.684564 0.00603198 0.00589349 0.00572454 0.00588334
0.689597 0.0060346 0.00588734 0.00572134 0.00588109
0.694631 0.0060366 0.00588083 0.00571807 0.0058785
0.699664 0.0060381 0.00587402 0.00571453 0.00587555
0.704698 0.00603924 0.00586693 0.00571052 0.00587223
0.709732 0.00604015 0.00585953 0.00570591 0.00586853
0.714765 0.00604094 0.00585173 0.00570073 0.00586447
0.719799 0.00604175 0.00584351 0.00569513 0.00586013
0.724832 0.00604273 0.005835 0.00568932 0.00585568
0.729866 0.00604409 0.00582646 0.00568349 0.00585135
0.734899 0.00604604 0.0058183 0.0056778 0.00584738
0.739933 0.00604878 0.00581101 0.00567235 0.00584405
0.744966 0.0060524 0.00580504 0.00566716 0.00584154
0.75 0.00605683 0.0058007 0.00566208 0.00583987
