# integrated auto-correlation of: jx jy jz avg
0 0 0 0 0
0.00502008 0.00174765 0.00173308 0.00171695 0.00173256
0.0100402 0.00335523 0.00332638 0.00329386 0.00332516
0.0150602 0.00474684 0.00470379 0.00465466 0.00470176
0.0200803 0.00591985 0.00586209 0.00579641 0.00585945
0.0251004 0.00691176 0.00683827 0.00675656 0.00683553
0.0301205 0.0077671 0.00767666 0.00757982 0.00767453
0.0351406 0.00852249 0.00841401 0.00830301 0.00841317
0.0401606 0.00920447 0.00907717 0.00895264 0.00907809
0.0451807 0.00983135 0.00968485 0.00954674 0.00968765
0.0502008 0.010415 0.0102492 0.0100968 0.0102537
0.0552209 0.010962 0.0107773 0.0106095 0.0107829
0.060241 0.0114757 0.0112731 0.0110886 0.0112792
0.065261 0.0119587 0.0117393 0.0115371 0.011745
0.0702811 0.012414 0.0121791 0.0119586 0.0121839
0.0753012 0.0128454 0.0125957 0.0123577 0.0125996
0.0803213 0.0132571 0.0129926 0.0127388 0.0129962
0.0853414 0.0136528 0.0133726 0.0131057 0.013377
0.0903614 0.0140348 0.0137385 0.0134609 0.0137447
0.0953815 0.0144041 0.0140923 0.0138054 0.0141006
0.100402 0.0147609 0.0144352 0.0141393 0.0144451
0.105422 0.0151046 0.0147673 0.0144622 0.0147781
0.110442 0.0154353 0.0150882 0.0147735 0.015099
0.115462 0.0157528 0.0153972 0.0150735 0.0154078
0.120482 0.0160575 0.0156943 0.015363 0.0157049
0.125502 0.0163503 0.0159799 0.015643 0.0159911
0.130522 0.0166322 0.0162551 0.0159146 0.0162673
0.135542 0.0169046 0.0165208 0.0161789 0.0165348
0.140562 0.0171689 0.016778 0.0164365 0.0167945
0.145582 0.017426 0.0170272 0.0166879 0.017047
0.150602 0.0176764 0.0172686 0.0169332 0.0172927
0.155622 0.0179199 0.0175021 0.0171725 0.0175315
0.160643 0.0181563 0.0177278 0.0174057 0.0177632
0.165663 0.0183852 0.0179456 0.0176322 0.0179877
0.170683 0.0186066 0.018156 0.0178517 0.0182048
0.175703 0.0188209 0.0183593 0.0180637 0.0184146
0.180723 0.0190286 0.018556 0.0182685 0.0186177
0.185743 0.0192299 0.0187471 0.0184663 0.0188144
0.190763 0.019425 0.0189332 0.0186573 0.0190051
0.195783 0.0196137 0.019115 0.0188413 0.01919
0.200803 0.0197961 0.0192929 0.0190176 0.0193689
0.205823 0.0199726 0.0194667 0.0191859 0.0195417
0.210843 0.0201437 0.0196358 0.0193459 0.0197085
0.215863 0.0203097 0.0197995 0.0194982 0.0198691
0.220884 0.0204708 0.0199577 0.0196433 0.0200239
0.225904 0.0206265 0.0201108 0.0197823 0.0201732
0.230924 0.0207764 0.0202593 0.0199159 0.0203172
0.235944 0.0209204 0.0204042 0.0200448 0.0204564
0.240964 0.0210584 0.020546 0.020169 0.0205911
0.245984 0.0211909 0.0206854 0.0202886 0.0207216
0.251004 0.0213184 0.0208226 0.0204033 0.0208481
0.256024 0.0214417 0.0209573 0.0205131 0.0209707
0.261044 0.0215618 0.021089 0.020618 0.0210896
0.266064 0.0216792 0.0212171 0.0207187 0.021205
0.271084 0.0217946 0.0213414 0.020816 0.0213173
0.276104 0.0219085 0.0214619 0.0209106 0.021427
0.281124 0.022021 0.0215787 0.0210029 0.0215342
0.286145 0.0221322 0.0216918 0.021093 0.021639
0.291165 0.0222416 0.0218009 0.0211807 0.0217411
0.296185 0.0223488 0.0219058 0.0212661 0.0218402
0.301205 0.0224534 0.0220071 0.0213495 0.0219367
0.306225 0.0225552 0.0221059 0.021431 0.0220307
0.311245 0.0226539 0.0222032 0.0215105 0.0221225
0.316265 0.0227489 0.0223 0.0215878 0.0222122
0.321285 0.0228399 0.0223966 0.0216632 0.0222999
0.326305 0.0229271 0.0224934 0.0217369 0.0223858
0.331325 0.023011 0.0225904 0.0218094 0.0224703
0.336345 0.0230923 0.0226876 0.0218812 0.0225537
0.341365 0.0231719 0.0227844 0.0219521 0.0226361
0.346386 0.0232502 0.0228803 0.0220219 0.0227175
0.351406 0.0233273 0.0229749 0.0220899 0.0227973
0.356426 0.023403 0.0230676 0.0221552 0.0228753
0.361446 0.0234767 0.0231583 0.0222177 0.0229509
0.366466 0.0235478 0.023247 0.0222772 0.023024
0.371486 0.0236159 0.0233335 0.022334 0.0230945
0.376506 0.0236808 0.0234176 0.0223884 0.0231623
0.381526 0.0237431 0.0234991 0.0224405 0.0232276
0.386546 0.0238037 0.0235779 0.0224905 0.0232907
0.391566 0.0238635 0.023654 0.022539 0.0233522
0.396586 0.0239234 0.0237275 0.022587 0.0234126
0.401606 0.0239836 0.0237984 0.0226351 0.0234724
0.406627 0.0240441 0.0238669 0.0226838 0.0235316
0.411647 0.0241039 0.0239333 0.0227328 0.02359
0.416667 0.0241622 0.0239985 0.0227818 0.0236475
0.421687 0.0242182 0.0240628 0.0228303 0.0237038
0.426707 0.0242719 0.0241263 0.0228779 0.0237587
0.431727 0.0243237 0.0241888 0.0229244 0.0238123
0.436747 0.0243743 0.02425 0.0229697 0.0238647
0.441767 0.0244245 0.02431 0.0230144 0.0239163
0.446787 0.0244745 0.0243688 0.0230591 0.0239674
0.451807 0.0245242 0.0244263 0.0231044 0.0240183
0.456827 0.0245735 0.0244822 0.0231505 0.0240687
0.461847 0.0246222 0.0245363 0.0231972 0.0241186
0.466867 0.0246704 0.0245891 0.0232438 0.0241677
0.471888 0.0247183 0.0246414 0.0232895 0.0242164
0.476908 0.0247664 0.0246941 0.0233339 0.0242648
0.481928 0.0248144 0.0247475 0.0233764 0.0243128
0.486948 0.0248619 0.0248016 0.0234172 0.0243603
0.491968 0.0249083 0.024856 0.0234564 0.0244069
0.496988 0.0249529 0.0249103 0.0234942 0.0244525
0.502008 0.0249952 0.0249642 0.0235306 0.0244966
0.507028 0.0250353 0.025017 0.0235653 0.0245392
0.512048 0.0250736 0.0250683 0.0235979 0.02458
0.517068 0.0251106 0.0251176 0.0236285 0.0246189
0.522088 0.0251468 0.0251643 0.0236569 0.024656
0.527108 0.0251822 0.0252079 0.0236839 0.0246913
0.532129 0.025217 0.0252481 0.0237097 0.0247249
0.537149 0.0252513 0.0252852 0.0237349 0.0247571
0.542169 0.0252853 0.0253198 0.0237596 0.0247882
0.547189 0.025319 0.0253526 0.0237839 0.0248185
0.552209 0.0253524 0.025384 0.0238078 0.0248481
0.557229 0.0253855 0.0254146 0.0238316 0.0248772
0.562249 0.0254184 0.0254446 0.0238555 0.0249062
0.567269 0.0254514 0.0254745 0.0238799 0.0249352
0.572289 0.0254847 0.0255046 0.0239047 0.0249647
0.577309 0.0255184 0.0255349 0.02393 0.0249944
0.582329 0.0255524 0.025565 0.0239553 0.0250242
0.587349 0.025586 0.0255942 0.0239804 0.0250535
0.592369 0.0256188 0.0256219 0.0240044 0.0250817
0.59739 0.0256501 0.025648 0.0240265 0.0251082
0.60241 0.0256797 0.0256729 0.0240464 0.025133
0.60743 0.0257071 0.0256971 0.0240639 0.025156
0.61245 0.0257322 0.0257214 0.0240797 0.0251778
0.61747 0.0257553 0.0257462 0.0240942 0.0251986
0.62249 0.0257765 0.0257718 0.0241077 0.0252187
0.62751 0.0257966 0.0257982 0.0241199 0.0252382
0.63253 0.0258161 0.025825 0.0241302 0.0252571
0.63755 0.0258356 0.0258521 0.0241387 0.0252754
0.64257 0.0258557 0.0258792 0.0241454 0.0252934
0.64759 0.0258771 0.0259062 0.024151 0.0253114
0.65261 0.0259001 0.0259328 0.0241566 0.0253298
0.657631 0.0259245 0.0259587 0.0241633 0.0253489
0.662651 0.0259501 0.0259838 0.0241719 0.0253686
0.667671 0.0259762 0.0260077 0.0241828 0.0253889
0.672691 0.0260024 0.0260304 0.0241956 0.0254095
0.677711 0.0260283 0.0260519 0.0242097 0.0254299
0.682731 0.0260537 0.026072 0.0242242 0.02545
0.687751 0.0260788 0.0260911 0.0242382 0.0254694
0.692771 0.026104 0.0261093 0.024251 0.0254881
0.697791 0.0261293 0.0261266 0.0242619 0.025506
0.702811 0.0261549 0.0261435 0.0242706 0.025523
0.707831 0.0261804 0.0261601 0.0242766 0.025539
0.712851 0.0262057 0.0261771 0.0242801 0.0255543
0.717871 0.0262303 0.0261946 0.0242816 0.0255688
0.722892 0.0262541 0.0262128 0.0242819 0.0255829
0.727912 0.0262769 0.0262312 0.0242815 0.0255966
0.732932 0.0262988 0.0262493 0.0242809 0.0256097
0.737952 0.0263201 0.0262667 0.0242802 0.0256223
0.742972 0.0263412 0.0262834 0.0242793 0.0256346
0.747992 0.0263624 0.0262994 0.024278 0.0256466
0.753012 0.0263842 0.0263148 0.0242763 0.0256584
0.758032 0.0264069 0.0263293 0.0242742 0.0256701
0.763052 0.0264307 0.026343 0.0242719 0.0256819
0.768072 0.0264559 0.026356 0.0242695 0.0256938
0.773092 0.0264828 0.0263685 0.0242669 0.0257061
0.778112 0.0265111 0.0263807 0.0242641 0.0257186
0.783133 0.0265404 0.0263928 0.0242612 0.0257314
0.788153 0.0265699 0.0264049 0.0242582 0.0257443
0.793173 0.0265992 0.0264172 0.0242553 0.0257572
0.798193 0.026628 0.0264294 0.0242529 0.0257701
0.803213 0.0266563 0.0264416 0.0242511 0.025783
0.808233 0.0266841 0.0264535 0.0242501 0.0257959
0.813253 0.0267116 0.0264646 0.0242502 0.0258088
0.818273 0.0267394 0.0264744 0.0242515 0.0258218
0.823293 0.0267682 0.0264826 0.0242536 0.0258348
0.828313 0.0267981 0.026489 0.0242559 0.0258477
0.833333 0.0268289 0.0264935 0.0242579 0.0258601
0.838353 0.0268604 0.026496 0.0242588 0.0258718
0.843373 0.0268921 0.0264965 0.0242587 0.0258824
0.848394 0.0269235 0.0264953 0.0242575 0.0258921
0.853414 0.0269547 0.0264929 0.0242555 0.025901
0.858434 0.0269856 0.0264904 0.0242531 0.0259097
0.863454 0.0270162 0.0264888 0.024251 0.0259187
0.868474 0.0270464 0.026489 0.0242496 0.0259283
0.873494 0.027076 0.0264917 0.024249 0.0259389
0.878514 0.0271046 0.0264965 0.0242492 0.0259501
0.883534 0.027132 0.0265028 0.0242499 0.0259616
0.888554 0.0271587 0.0265098 0.0242507 0.025973
0.893574 0.0271851 0.0265167 0.0242514 0.0259844
0.898594 0.0272119 0.026523 0.024252 0.0259956
0.903614 0.0272396 0.0265284 0.0242526 0.0260069
0.908635 0.0272684 0.0265326 0.0242536 0.0260182
0.913655 0.0272983 0.0265357 0.0242556 0.0260298
0.918675 0.0273291 0.0265375 0.0242585 0.0260417
0.923695 0.0273607 0.0265382 0.0242624 0.0260538
0.928715 0.0273923 0.0265377 0.0242669 0.0260656
0.933735 0.0274236 0.0265357 0.024272 0.0260771
0.938755 0.0274539 0.0265322 0.0242775 0.0260879
0.943775 0.0274832 0.0265276 0.0242835 0.0260981
0.948795 0.0275113 0.0265222 0.02429 0.0261078
0.953815 0.027538 0.026517 0.024297 0.0261173
0.958835 0.0275631 0.0265125 0.0243044 0.0261267
0.963855 0.027586 0.0265089 0.0243121 0.0261356
0.968876 0.0276065 0.0265062 0.0243194 0.0261441
0.973896 0.027625 0.0265046 0.0243257 0.0261518
0.978916 0.027642 0.0265037 0.0243304 0.0261587
0.983936 0.027658 0.0265035 0.0243332 0.0261649
0.988956 0.0276734 0.0265037 0.0243344 0.0261705
0.993976 0.0276884 0.0265045 0.0243348 0.0261759
0.998996 0.0277032 0.0265067 0.0243349 0.0261816
1.00402 0.027718 0.0265107 0.0243347 0.0261878
1.00904 0.0277333 0.0265167 0.0243342 0.0261947
1.01406 0.0277488 0.0265241 0.024333 0.026202
1.01908 0.0277647 0.0265317 0.024331 0.0262091
1.0241 0.0277807 0.026538 0.024328 0.0262156
1.02912 0.0277968 0.0265423 0.0243241 0.0262211
1.03414 0.0278128 0.026544 0.0243195 0.0262254
1.03916 0.027828 0.0265434 0.024315 0.0262288
1.04418 0.027842 0.0265409 0.024311 0.0262313
1.0492 0.0278548 0.0265368 0.0243081 0.0262332
1.05422 0.027867 0.0265315 0.0243069 0.0262351
1.05924 0.0278793 0.0265253 0.0243073 0.0262373
1.06426 0.0278921 0.0265182 0.0243092 0.0262398
1.06928 0.027905 0.0265105 0.0243119 0.0262425
1.0743 0.0279172 0.0265024 0.024315 0.0262449
1.07932 0.0279278 0.0264944 0.0243181 0.0262468
1.08434 0.0279364 0.0264867 0.0243208 0.0262479
1.08936 0.0279427 0.0264798 0.0243228 0.0262484
1.09438 0.0279471 0.0264741 0.024324 0.0262484
1.0994 0.0279502 0.0264698 0.0243245 0.0262482
1.10442 0.0279529 0.0264667 0.0243245 0.026248
1.10944 0.0279556 0.0264642 0.0243243 0.026248
1.11446 0.0279584 0.0264614 0.0243245 0.0262481
1.11948 0.0279608 0.0264579 0.0243253 0.026248
1.1245 0.0279622 0.0264539 0.0243265 0.0262475
1.12952 0.0279621 0.0264498 0.0243277 0.0262465
1.13454 0.0279606 0.0264462 0.0243282 0.026245
1.13956 0.0279581 0.0264433 0.0243273 0.0262429
1.14458 0.0279557 0.0264404 0.0243246 0.0262402
1.1496 0.0279542 0.0264372 0.0243192 0.0262369
1.15462 0.0279542 0.0264329 0.024311 0.0262327
1.15964 0.0279563 0.0264276 0.0242999 0.0262279
1.16466 0.0279606 0.0264215 0.0242867 0.0262229
1.16968 0.0279674 0.0264155 0.0242726 0.0262185
1.1747 0.0279766 0.0264102 0.024259 0.0262153
1.17972 0.0279882 0.0264063 0.024247 0.0262139
1.18474 0.0280019 0.0264038 0.0242373 0.0262143
1.18976 0.0280172 0.026402 0.0242296 0.0262163
1.19478 0.0280333 0.0264001 0.0242237 0.026219
1.1998 0.0280494 0.0263975 0.024219 0.026222
1.20482 0.0280646 0.0263936 0.0242151 0.0262244
1.20984 0.0280784 0.0263885 0.0242122 0.0262264
1.21486 0.0280911 0.0263826 0.0242103 0.026228
1.21988 0.0281032 0.0263766 0.0242095 0.0262298
1.2249 0.0281156 0.0263714 0.0242098 0.0262323
1.22992 0.0281287 0.0263674 0.0242108 0.0262356
1.23494 0.0281426 0.0263647 0.0242124 0.0262399
1.23996 0.0281572 0.0263636 0.0242148 0.0262452
1.24498 0.0281722 0.0263639 0.0242182 0.0262514
1.25 0.028187 0.0263657 0.0242227 0.0262585
